,time [s]
0,3.8991215229034424
1,4.158551931381226
2,4.452260971069336
3,4.7511515617370605
4,4.98282527923584
5,5.235044240951538
6,5.457135438919067
7,5.700146675109863
8,6.023313522338867
9,6.240964412689209
10,6.481843709945679
11,6.71574330329895
12,6.97064733505249
13,7.24682092666626
14,7.516916275024414
15,7.7841479778289795
16,8.066512107849121
17,8.345343589782715
18,8.607446193695068
19,8.87917685508728
20,9.165302991867065
21,9.432823657989502
22,9.683044910430908
23,9.958555936813354
24,10.202103614807129
25,10.447275638580322
26,10.68432092666626
27,10.939693212509155
28,11.173161506652832
29,11.462106227874756
30,11.721563816070557
31,11.98789095878601
32,12.25992488861084
33,12.53093671798706
34,12.833791494369507
35,13.121678829193115
36,13.372589349746704
37,13.673895120620728
38,13.947336912155151
39,14.191509485244751
40,14.454665422439575
41,14.700989246368408
42,14.904027462005615
43,15.131452798843384
44,15.366891145706177
45,15.59386396408081
46,15.827311515808105
47,16.074527740478516
48,16.3230037689209
49,16.541719436645508
50,16.81072974205017
51,17.03457236289978
52,17.27557945251465
53,17.530354022979736
54,17.75874972343445
55,17.970075368881226
56,18.203217267990112
57,18.43993902206421
58,18.663620471954346
59,18.889963626861572
60,19.140307426452637
61,19.384650230407715
62,19.595693111419678
63,19.83769679069519
64,20.06523036956787
65,20.310227870941162
66,20.56796622276306
67,20.792893171310425
68,21.027827739715576
69,21.246145009994507
70,21.520779609680176
71,21.71803903579712
72,21.949546337127686
73,22.15657114982605
74,22.41596007347107
75,22.62161087989807
76,22.85589098930359
77,23.10292077064514
78,23.299418687820435
79,23.544927835464478
80,23.78774356842041
81,24.021122217178345
82,24.25908327102661
83,24.506337642669678
84,24.753573656082153
85,24.98513674736023
86,25.24103856086731
87,25.511542320251465
88,25.73234510421753
89,25.988131999969482
90,26.254247426986694
91,26.502795696258545
92,26.76231598854065
93,26.998243808746338
94,27.23971652984619
95,27.491025686264038
96,27.729575634002686
97,27.96762990951538
98,28.23274850845337
99,28.507385969161987
100,28.752718687057495
101,29.01071262359619
102,29.27440333366394
103,29.501184463500977
104,29.75264883041382
105,30.029475688934326
106,30.27755832672119
107,30.564064502716064
108,30.804473638534546
109,31.055177927017212
110,31.29532241821289
111,31.568671703338623
112,31.80209469795227
113,32.06431460380554
114,32.301509857177734
115,32.56788110733032
116,32.82821035385132
117,33.10027551651001
118,33.36484456062317
119,33.60302972793579
120,33.867154598236084
121,34.09893751144409
122,34.340463638305664
123,34.61965870857239
124,34.83850908279419
125,35.06545305252075
126,35.285542488098145
127,35.501845836639404
128,35.74099087715149
129,35.97924518585205
130,36.192957162857056
131,36.411428689956665
132,36.67340898513794
133,36.88068437576294
134,37.09436917304993
135,37.323004961013794
136,37.578134298324585
137,37.80343413352966
138,38.03028464317322
139,38.260868310928345
140,38.49435472488403
141,38.750850439071655
142,39.02343225479126
143,39.26016592979431
144,39.540199995040894
145,39.81117367744446
146,40.052918434143066
147,40.29626989364624
148,40.528770208358765
149,40.77710700035095
150,41.011479139328
151,41.24434685707092
152,41.49161076545715
153,41.77774381637573
154,41.96864151954651
155,42.21307706832886
156,42.441230058670044
157,42.6633358001709
158,42.890482664108276
159,43.12549018859863
160,43.39342784881592
161,43.62203097343445
162,43.88629746437073
163,44.109208822250366
164,44.33598756790161
165,44.58417296409607
166,44.863635540008545
167,45.13362789154053
168,45.38444924354553
169,45.64471125602722
170,45.90460181236267
171,46.15782570838928
172,46.40045499801636
173,46.64393973350525
174,46.93267464637756
175,47.18835163116455
176,47.44701910018921
177,47.68995904922485
178,47.91681623458862
179,48.17057013511658
180,48.35909628868103
181,48.5935001373291
182,48.83014178276062
183,49.024789810180664
184,49.24320840835571
185,49.4699501991272
186,49.69348931312561
187,49.95560145378113
188,50.20539379119873
189,50.40644860267639
190,50.6498236656189
191,50.90709924697876
192,51.14955687522888
193,51.38491368293762
194,51.59476375579834
195,51.819355964660645
196,52.0531280040741
197,52.29299998283386
198,52.543546199798584
199,52.80051112174988
200,53.020856618881226
201,53.26157236099243
202,53.48595094680786
203,53.74441194534302
204,53.9915816783905
205,54.234121561050415
206,54.44563174247742
207,54.69872260093689
208,54.93523550033569
209,55.141629695892334
210,55.38419485092163
211,55.604377031326294
212,55.85830593109131
213,56.086259841918945
214,56.31695032119751
215,56.54196000099182
216,56.78646779060364
217,57.02260375022888
218,57.25414228439331
219,57.527671575546265
220,57.77905821800232
221,58.014463663101196
222,58.22763156890869
223,58.47936987876892
224,58.73026204109192
225,58.95253252983093
226,59.18544936180115
227,59.4090371131897
228,59.63829731941223
229,59.870046615600586
230,60.11563515663147
231,60.336424350738525
232,60.58181118965149
233,60.80677771568298
234,61.06067109107971
235,61.285544872283936
236,61.5081090927124
237,61.75510764122009
238,61.974550008773804
239,62.23395299911499
240,62.45521807670593
241,62.72252893447876
242,62.94375467300415
243,63.17787504196167
244,63.41404151916504
245,63.657023191452026
246,63.88902306556702
247,64.13105630874634
248,64.3667962551117
249,64.60229706764221
250,64.84768557548523
251,65.09462857246399
252,65.31708669662476
253,65.54658889770508
254,65.79530549049377
255,66.00978636741638
256,66.23120212554932
257,66.4758529663086
258,66.72186040878296
259,66.94057750701904
260,67.19997668266296
261,67.4515528678894
262,67.64936780929565
263,67.88029718399048
264,68.10879492759705
265,68.37716007232666
266,68.60735154151917
267,68.8090009689331
268,69.05024576187134
269,69.26592206954956
270,69.5115418434143
271,69.77278709411621
272,69.95969200134277
273,70.2554874420166
274,70.48209381103516
275,70.71403503417969
276,70.99077677726746
277,71.18945074081421
278,71.44818902015686
279,71.69491243362427
280,71.94476437568665
281,72.18441438674927
282,72.42772722244263
283,72.70151925086975
284,72.96953773498535
285,73.21848893165588
286,73.49698877334595
287,73.70891404151917
288,73.94732022285461
289,74.18634128570557
290,74.44423484802246
291,74.6785204410553
292,74.95559048652649
293,75.18657970428467
294,75.42385005950928
295,75.65666103363037
296,75.90837526321411
297,76.13204407691956
298,76.36950182914734
299,76.60619878768921
300,76.83666229248047
301,77.09934377670288
302,77.31960129737854
303,77.54772901535034
304,77.77683424949646
305,78.02610850334167
306,78.2519383430481
307,78.48888301849365
308,78.71559190750122
309,78.92936325073242
310,79.15321254730225
311,79.3956081867218
312,79.61844849586487
313,79.85133528709412
314,80.11666440963745
315,80.30293250083923
316,80.52530264854431
317,80.77378439903259
318,80.98973870277405
319,81.24393582344055
320,81.4497480392456
321,81.68584752082825
322,81.92473340034485
323,82.11298727989197
324,82.34565258026123
325,82.56802153587341
326,82.7883369922638
327,83.01509547233582
328,83.25654721260071
329,83.47577953338623
330,83.68986558914185
331,83.90088438987732
332,84.13360929489136
333,84.3797447681427
334,84.63020014762878
335,84.87198877334595
336,85.1365373134613
337,85.37366390228271
338,85.60871601104736
339,85.84586691856384
340,86.08517694473267
341,86.32247614860535
342,86.5648410320282
343,86.79048991203308
344,87.03341841697693
345,87.2617597579956
346,87.51857447624207
347,87.74279117584229
348,87.98620438575745
349,88.2410581111908
350,88.457350730896
351,88.69373965263367
352,88.9489848613739
353,89.1949405670166
354,89.44752478599548
355,89.66633987426758
356,89.89662671089172
357,90.14478254318237
358,90.39979553222656
359,90.70428681373596
360,90.952383518219
361,91.24301028251648
362,91.48971843719482
363,91.71091771125793
364,91.97317910194397
365,92.20496487617493
366,92.50131273269653
367,92.75429368019104
368,92.99065732955933
369,93.23363280296326
370,93.5386312007904
371,93.78357338905334
372,94.03549528121948
373,94.33109211921692
374,94.58891081809998
375,94.85307121276855
376,95.09065461158752
377,95.43475532531738
378,95.727530002594
379,96.0364580154419
380,96.3096752166748
381,96.51342105865479
382,96.74730730056763
383,96.98422074317932
384,97.2128918170929
385,97.46272039413452
386,97.72216844558716
387,97.96662783622742
388,98.20794296264648
389,98.44118762016296
390,98.71729755401611
391,98.99131298065186
392,99.23158717155457
393,99.48830842971802
394,99.72501564025879
395,99.97932124137878
396,100.24002623558044
397,100.48143696784973
398,100.71921253204346
399,100.99333691596985
400,101.27839207649231
401,101.53084015846252
402,101.75422191619873
403,101.9901876449585
404,102.23242783546448
405,102.46236968040466
406,102.68211936950684
407,102.91845917701721
408,103.18170142173767
409,103.41591215133667
410,103.64740109443665
411,103.8756959438324
412,104.12355947494507
413,104.3858494758606
414,104.59150648117065
415,104.81903147697449
416,105.07352232933044
417,105.29612445831299
418,105.59119606018066
419,105.83263087272644
420,106.05626368522644
421,106.30139946937561
422,106.55350017547607
423,106.78713989257812
424,107.07257437705994
425,107.31409931182861
426,107.5620186328888
427,107.78981590270996
428,108.01304793357849
429,108.23364615440369
430,108.46596789360046
431,108.70423769950867
432,108.96860265731812
433,109.19359350204468
434,109.43877220153809
435,109.68014454841614
436,109.93354892730713
437,110.16755294799805
438,110.43064641952515
439,110.71087908744812
440,110.9883394241333
441,111.24795532226562
442,111.50997877120972
443,111.76497483253479
444,112.01985812187195
445,112.30581974983215
446,112.6111695766449
447,112.94169902801514
448,113.3085126876831
449,113.65536999702454
450,113.9959123134613
451,114.33896493911743
452,114.6761474609375
453,115.02835965156555
454,115.36398696899414
455,115.71331477165222
456,116.02934527397156
457,116.40184998512268
458,116.75283694267273
459,117.10749435424805
460,117.44495105743408
461,117.77586627006531
462,118.12823224067688
463,118.48015666007996
464,118.8433039188385
465,119.15836596488953
466,119.48539805412292
467,119.83971309661865
468,120.18361783027649
469,120.53549647331238
470,120.88617658615112
471,121.23070192337036
472,121.57537961006165
473,121.9109570980072
474,122.2447156906128
475,122.5809907913208
476,122.9398148059845
477,123.27661037445068
478,123.636554479599
479,123.99220848083496
480,124.3406400680542
481,124.69114184379578
482,125.03041958808899
483,125.35533428192139
484,125.69057369232178
485,125.96191048622131
486,126.21924185752869
487,126.46393918991089
488,126.69908905029297
489,126.94907474517822
490,127.18958020210266
491,127.45028591156006
492,127.69372868537903
493,127.93655776977539
494,128.19713735580444
495,128.45427441596985
496,128.73947668075562
497,128.98159265518188
498,129.30495834350586
499,129.53027248382568
500,129.81625604629517
501,130.0486979484558
502,130.31336092948914
503,130.54341673851013
504,130.76834416389465
505,131.00763964653015
506,131.23525261878967
507,131.48784852027893
508,131.7218782901764
509,131.9636676311493
510,132.21132445335388
511,132.46233224868774
512,132.709139585495
513,132.94248819351196
514,133.17448711395264
515,133.43252277374268
516,133.68069767951965
517,133.93913674354553
518,134.19576787948608
519,134.45529770851135
520,134.69540667533875
521,134.91894602775574
522,135.14361095428467
523,135.3777585029602
524,135.61517930030823
525,135.85522866249084
526,136.08477902412415
527,136.35352087020874
528,136.58363556861877
529,136.81462979316711
530,137.05844974517822
531,137.30962800979614
532,137.55782079696655
533,137.79716420173645
534,138.04133129119873
535,138.3121268749237
536,138.55104041099548
537,138.78696608543396
538,139.02212619781494
539,139.24828624725342
540,139.51960444450378
541,139.76883578300476
542,139.98352527618408
543,140.28681564331055
544,140.54798102378845
545,140.83877515792847
546,141.08165311813354
547,141.3602705001831
548,141.6233570575714
549,141.84375095367432
550,142.087543964386
551,142.3393006324768
552,142.59680652618408
553,142.86646676063538
554,143.0945634841919
555,143.35806465148926
556,143.60616517066956
557,143.85609602928162
558,144.10266280174255
559,144.35081481933594
560,144.60975694656372
561,144.8255934715271
562,145.09051084518433
563,145.32509398460388
564,145.5915915966034
565,145.821280002594
566,146.05706214904785
567,146.35572862625122
568,146.5657994747162
569,146.7970793247223
570,147.05091404914856
571,147.31465482711792
572,147.56662559509277
573,147.84944319725037
574,148.07800674438477
575,148.33051013946533
576,148.59085178375244
577,148.81958436965942
578,149.0722210407257
579,149.34379649162292
580,149.60381269454956
581,149.84470629692078
582,150.0783302783966
583,150.31220722198486
584,150.56014108657837
585,150.79553532600403
586,151.05033683776855
587,151.2717924118042
588,151.49491930007935
589,151.7271089553833
590,151.95008492469788
591,152.19610452651978
592,152.4315221309662
593,152.68627429008484
594,152.9365041255951
595,153.22351574897766
596,153.4283196926117
597,153.66531443595886
598,153.91675758361816
599,154.16650986671448
600,154.45720982551575
601,154.66969966888428
602,154.9125533103943
603,155.1615138053894
604,155.4077661037445
605,155.62095499038696
606,155.8922255039215
607,156.10944485664368
608,156.33177137374878
609,156.58478903770447
610,156.82619786262512
611,157.11507511138916
612,157.32495260238647
613,157.57619857788086
614,157.81216716766357
615,158.05584049224854
616,158.2946915626526
617,158.53643774986267
618,158.7729697227478
619,159.01547622680664
620,159.24339246749878
621,159.50357723236084
622,159.72963213920593
623,160.01236248016357
624,160.25198698043823
625,160.4991307258606
626,160.72576570510864
627,160.9774830341339
628,161.1636724472046
629,161.38806772232056
630,161.61155438423157
631,161.85527849197388
632,162.09982562065125
633,162.33119177818298
634,162.5701026916504
635,162.80745196342468
636,163.03438091278076
637,163.2897298336029
638,163.53541207313538
639,163.76877784729004
640,164.00981044769287
641,164.23431015014648
642,164.4990086555481
643,164.71482300758362
644,164.9601285457611
645,165.22462463378906
646,165.45886397361755
647,165.7056441307068
648,165.9551453590393
649,166.2094795703888
650,166.4472725391388
651,166.7029299736023
652,166.95594263076782
653,167.19474506378174
654,167.4184694290161
655,167.65367603302002
656,167.90398335456848
657,168.1716911792755
658,168.41452145576477
659,168.66107892990112
660,168.91818952560425
661,169.14573526382446
662,169.39078783988953
663,169.6551332473755
664,169.89490699768066
665,170.12386107444763
666,170.35008001327515
667,170.5855255126953
668,170.81723356246948
669,171.03436493873596
670,171.25117683410645
671,171.51471328735352
672,171.7386085987091
673,171.9606113433838
674,172.23625659942627
675,172.4479901790619
676,172.6637988090515
677,172.87556147575378
678,173.10352444648743
679,173.34418749809265
680,173.5929913520813
681,173.82117080688477
682,174.04424929618835
683,174.2655165195465
684,174.47520995140076
685,174.73501920700073
686,174.9427535533905
687,175.19839143753052
688,175.4443962574005
689,175.69809651374817
690,175.95791220664978
691,176.20062041282654
692,176.4132800102234
693,176.65254974365234
694,176.90273356437683
695,177.1328272819519
696,177.3902554512024
697,177.6265833377838
698,177.85268378257751
699,178.11872100830078
700,178.34062957763672
701,178.58691596984863
702,178.821631193161
703,179.05497527122498
704,179.27588868141174
705,179.51393055915833
706,179.74952864646912
707,179.98919248580933
708,180.20331406593323
709,180.44289565086365
710,180.6880075931549
711,180.93111658096313
712,181.1872317790985
713,181.42917108535767
714,181.67982149124146
715,181.94471526145935
716,182.20654964447021
717,182.4434938430786
718,182.68790912628174
719,182.93359112739563
720,183.17418456077576
721,183.41393756866455
722,183.65325903892517
723,183.88399529457092
724,184.11513352394104
725,184.3564646244049
726,184.6011290550232
727,184.8402874469757
728,185.07993078231812
729,185.3506875038147
730,185.58530068397522
731,185.8577573299408
732,186.0969021320343
733,186.33429837226868
734,186.57918882369995
735,186.8439576625824
736,187.12138509750366
737,187.42996668815613
738,187.70980763435364
739,187.95546889305115
740,188.20778465270996
741,188.48209476470947
742,188.71565747261047
743,188.98659944534302
744,189.2625551223755
745,189.5329372882843
746,189.80835127830505
747,190.05177545547485
748,190.30458045005798
749,190.53534173965454
750,190.7727334499359
751,190.99389052391052
752,191.25708985328674
753,191.46901941299438
754,191.702862739563
755,191.9666769504547
756,192.20257353782654
757,192.4448812007904
758,192.70208024978638
759,192.9403920173645
760,193.15734481811523
761,193.378910779953
762,193.63392996788025
763,193.88519191741943
764,194.1214587688446
765,194.35669326782227
766,194.61916995048523
767,194.84043550491333
768,195.08451175689697
769,195.3272671699524
770,195.53478717803955
771,195.76249265670776
772,195.9956316947937
773,196.24754333496094
774,196.4790599346161
775,196.73627758026123
776,196.9854974746704
777,197.25703525543213
778,197.50647115707397
779,197.80953454971313
780,198.0632803440094
781,198.28050136566162
782,198.52431774139404
783,198.77471590042114
784,198.99621558189392
785,199.23108172416687
786,199.4736671447754
787,199.69555830955505
788,199.949547290802
789,200.1861174106598
790,200.43669199943542
791,200.73469758033752
792,201.02531242370605
793,201.28405594825745
794,201.54012727737427
795,201.7920904159546
796,202.04000782966614
797,202.34145641326904
798,202.5864064693451
799,202.82881665229797
800,203.09677529335022
801,203.35290670394897
802,203.56779527664185
803,203.8179874420166
804,204.09333634376526
805,204.31733441352844
806,204.57197833061218
807,204.81783962249756
808,205.06098461151123
809,205.30104613304138
810,205.57405138015747
811,205.80195665359497
812,206.0553059577942
813,206.306396484375
814,206.56334805488586
815,206.84603023529053
816,207.0626609325409
817,207.34108757972717
818,207.59083223342896
819,207.85215950012207
820,208.08043265342712
821,208.32444715499878
822,208.57578921318054
823,208.8256893157959
824,209.06009197235107
825,209.32780861854553
826,209.56407165527344
827,209.8239986896515
828,210.0598223209381
829,210.31599807739258
830,210.56255292892456
831,210.79484009742737
832,211.03291654586792
833,211.28614020347595
834,211.5292136669159
835,211.7987756729126
836,212.02937865257263
837,212.27034878730774
838,212.53826594352722
839,212.77207589149475
840,213.0416965484619
841,213.31545639038086
842,213.5819149017334
843,213.78852796554565
844,214.04704308509827
845,214.2505738735199
846,214.47639322280884
847,214.7306478023529
848,214.95495176315308
849,215.19380927085876
850,215.43570685386658
851,215.69491863250732
852,215.9303538799286
853,216.23704767227173
854,216.54717469215393
855,216.80871534347534
856,217.0571632385254
857,217.34156942367554
858,217.67326974868774
859,217.9043848514557
860,218.11380076408386
861,218.38415932655334
862,218.6245720386505
863,218.85807180404663
864,219.07625341415405
865,219.32344937324524
866,219.56521701812744
867,219.81469583511353
868,220.04119324684143
869,220.308687210083
870,220.58426594734192
871,220.8405122756958
872,221.10319828987122
873,221.3734359741211
874,221.65229415893555
875,221.92388653755188
876,222.19566297531128
877,222.46790599822998
878,222.72362351417542
879,223.04316520690918
880,223.43370151519775
881,223.80243563652039
882,224.2014079093933
883,224.57843828201294
884,224.97695112228394
885,225.3542685508728
886,225.69962859153748
887,226.07745933532715
888,226.4590346813202
889,226.87200355529785
890,227.20388102531433
891,227.570317029953
892,227.92308974266052
893,228.2763078212738
894,228.6299409866333
